Steps,Current Distances
1,0.8999999761581421
2,0.9200000166893005
3,0.9300000071525574
4,0.949999988079071
5,0.9599999785423279
6,0.9599999785423279
7,0.949999988079071
8,0.9100000262260437
9,0.8700000047683716
10,0.8199999928474426
11,0.7799999713897705
12,0.7599999904632568
13,0.7300000190734863
14,0.699999988079071
15,0.6600000262260437
16,0.6100000143051147
17,0.5799999833106995
18,0.550000011920929
19,0.5099999904632568
20,0.4699999988079071
21,0.4399999976158142
22,0.4300000071525574
23,0.4300000071525574
24,0.4399999976158142
25,0.44999998807907104
26,0.46000000834465027
27,0.44999998807907104
28,0.4300000071525574
29,0.3799999952316284
30,0.33000001311302185
31,0.28999999165534973
32,0.25
33,0.20999999344348907
34,0.1599999964237213
35,2.4000000953674316
36,2.380000114440918
37,2.3499999046325684
38,2.309999942779541
39,2.25
40,2.190000057220459
41,2.119999885559082
42,2.059999942779541
43,2.009999990463257
44,1.9600000381469727
45,1.9199999570846558
46,1.8899999856948853
47,1.8600000143051147
48,1.809999942779541
49,1.7599999904632568
50,1.7000000476837158
51,1.649999976158142
52,1.600000023841858
53,1.5700000524520874
54,1.5499999523162842
55,1.5399999618530273
56,1.5199999809265137
57,1.5099999904632568
58,1.5099999904632568
59,1.4900000095367432
60,1.4500000476837158
61,1.399999976158142
62,1.3300000429153442
63,1.2699999809265137
64,1.190000057220459
65,1.1200000047683716
66,1.0399999618530273
67,0.9599999785423279
68,0.8899999856948853
69,0.8199999928474426
70,0.7400000095367432
71,0.6700000166893005
72,0.6000000238418579
73,0.5400000214576721
74,0.49000000953674316
75,0.44999998807907104
76,0.4000000059604645
77,0.3400000035762787
78,0.28999999165534973
79,0.23999999463558197
80,0.20000000298023224
81,0.17000000178813934
82,0.6899999976158142
83,0.6800000071525574
84,0.6499999761581421
85,0.6200000047683716
86,0.5899999737739563
87,0.5600000023841858
88,0.5199999809265137
89,0.4699999988079071
90,0.41999998688697815
91,0.3700000047683716
92,0.33000001311302185
93,0.2800000011920929
94,0.25
95,0.23000000417232513
96,0.2199999988079071
97,0.2199999988079071
98,0.20000000298023224
99,0.17000000178813934
100,2.25
101,2.240000009536743
102,2.2300000190734863
103,2.200000047683716
104,2.1700000762939453
105,2.130000114440918
106,2.0799999237060547
107,2.049999952316284
108,2.0299999713897705
109,2.0
110,1.9900000095367432
111,2.0
112,2.0199999809265137
113,2.0199999809265137
114,2.0199999809265137
115,2.0
116,1.9500000476837158
117,1.8899999856948853
118,1.8200000524520874
119,1.7400000095367432
120,1.6799999475479126
121,1.6200000047683716
122,1.5499999523162842
123,1.5
124,1.440000057220459
125,1.3899999856948853
126,1.6100000143051147
127,1.6200000047683716
128,1.6299999952316284
129,1.649999976158142
130,1.6399999856948853
131,1.6200000047683716
132,1.5800000429153442
133,1.5299999713897705
134,1.4900000095367432
135,1.4600000381469727
136,1.440000057220459
137,1.440000057220459
138,1.4299999475479126
139,1.409999966621399
140,1.3700000047683716
141,1.3200000524520874
142,1.2799999713897705
143,1.25
144,1.2200000286102295
145,1.190000057220459
146,1.149999976158142
147,1.1100000143051147
148,1.059999942779541
149,1.0099999904632568
150,0.9599999785423279
151,0.9200000166893005
152,0.8799999952316284
153,0.8500000238418579
154,0.7900000214576721
155,0.7300000190734863
156,0.6499999761581421
157,0.5699999928474426
158,0.49000000953674316
159,0.41999998688697815
160,0.3700000047683716
161,0.30000001192092896
162,0.2199999988079071
163,0.14000000059604645
164,0.7200000286102295
165,0.75
166,0.7699999809265137
167,0.7900000214576721
168,0.800000011920929
169,0.7900000214576721
170,0.7699999809265137
171,0.7400000095367432
172,0.699999988079071
173,0.6600000262260437
174,0.6200000047683716
175,0.5799999833106995
176,0.5299999713897705
177,0.47999998927116394
178,0.4300000071525574
179,0.38999998569488525
180,0.36000001430511475
181,0.3400000035762787
182,0.3199999928474426
183,0.28999999165534973
184,0.25999999046325684
185,0.23000000417232513
186,0.20000000298023224
187,0.18000000715255737
188,0.03999999910593033
189,1.7100000381469727
190,1.7200000286102295
191,1.7300000190734863
192,1.7400000095367432
193,1.7599999904632568
194,1.7799999713897705
195,1.7699999809265137
196,1.75
197,1.7100000381469727
198,1.6699999570846558
199,1.6100000143051147
200,1.5399999618530273
201,1.4800000190734863
202,1.4299999475479126
203,1.3700000047683716
204,1.3200000524520874
205,1.2599999904632568
206,1.2000000476837158
207,1.149999976158142
208,1.100000023841858
209,1.059999942779541
210,1.0199999809265137
211,0.9900000095367432
212,0.949999988079071
213,0.9100000262260437
214,0.8700000047683716
215,0.8399999737739563
216,0.800000011920929
217,0.75
218,0.6899999976158142
219,0.6299999952316284
220,0.5600000023841858
221,0.5199999809265137
222,0.47999998927116394
223,0.44999998807907104
224,0.4300000071525574
225,0.4099999964237213
226,0.3700000047683716
227,0.3400000035762787
228,0.3199999928474426
229,0.3100000023841858
230,0.2800000011920929
231,0.25999999046325684
232,0.25999999046325684
233,0.25999999046325684
234,0.25999999046325684
235,0.25999999046325684
236,0.23999999463558197
237,0.20999999344348907
238,0.1599999964237213
239,1.909999966621399
240,1.899999976158142
241,1.899999976158142
242,1.8700000047683716
243,1.8300000429153442
244,1.7899999618530273
245,1.7300000190734863
246,1.7000000476837158
247,1.6799999475479126
248,1.659999966621399
249,1.6200000047683716
250,1.590000033378601
251,1.559999942779541
252,1.5
253,1.4299999475479126
254,1.350000023841858
255,1.2699999809265137
256,1.190000057220459
257,1.1100000143051147
258,1.0299999713897705
259,0.9599999785423279
260,0.8999999761581421
261,0.8399999737739563
262,0.7799999713897705
263,0.7400000095367432
264,0.7099999785423279
265,0.6700000166893005
266,0.6299999952316284
267,0.5699999928474426
268,0.5199999809265137
269,0.47999998927116394
270,0.4399999976158142
271,0.4000000059604645
272,0.33000001311302185
273,0.25999999046325684
274,0.20000000298023224
275,0.1599999964237213
276,1.6299999952316284
277,1.6299999952316284
278,1.6399999856948853
279,1.6399999856948853
280,1.6299999952316284
281,1.6100000143051147
282,1.5800000429153442
283,1.559999942779541
284,1.5499999523162842
285,1.5199999809265137
286,1.4900000095367432
287,1.4600000381469727
288,1.409999966621399
289,1.3600000143051147
290,1.3300000429153442
291,1.3200000524520874
292,1.3200000524520874
293,1.3200000524520874
294,1.3300000429153442
295,1.309999942779541
296,1.2799999713897705
297,1.2400000095367432
298,1.190000057220459
299,1.1299999952316284
300,1.059999942779541
301,0.9900000095367432
302,0.9100000262260437
303,0.8299999833106995
304,0.75
305,0.6700000166893005
306,0.5899999737739563
307,0.5199999809265137
308,0.4399999976158142
309,0.3700000047683716
310,0.30000001192092896
311,1.159999966621399
312,1.1699999570846558
313,1.1799999475479126
314,1.190000057220459
315,1.1799999475479126
316,1.159999966621399
317,1.1299999952316284
318,1.0800000429153442
319,1.0299999713897705
320,1.0
321,0.9700000286102295
322,0.949999988079071
323,0.9399999976158142
324,0.9200000166893005
325,0.8899999856948853
326,0.8600000143051147
327,0.8399999737739563
328,0.8100000023841858
329,0.7699999809265137
330,0.7300000190734863
331,0.7200000286102295
332,0.699999988079071
333,0.6899999976158142
334,0.6700000166893005
335,0.6499999761581421
336,0.6299999952316284
337,0.6100000143051147
338,0.5699999928474426
339,0.5400000214576721
340,0.5
341,0.4699999988079071
342,0.4399999976158142
343,0.4099999964237213
344,0.4000000059604645
345,0.38999998569488525
346,0.4000000059604645
347,0.4000000059604645
348,0.4000000059604645
349,0.38999998569488525
350,0.3799999952316284
351,0.3400000035762787
352,0.30000001192092896
353,0.27000001072883606
354,0.25
355,0.23999999463558197
356,0.20999999344348907
357,0.18000000715255737
358,0.6000000238418579
359,0.6100000143051147
360,0.6100000143051147
361,0.6100000143051147
362,0.6000000238418579
363,0.5699999928474426
364,0.5299999713897705
365,0.47999998927116394
366,0.44999998807907104
367,0.41999998688697815
368,0.3799999952316284
369,0.3499999940395355
370,0.33000001311302185
371,0.3199999928474426
372,0.28999999165534973
373,0.25999999046325684
374,0.20999999344348907
375,0.17000000178813934
376,1.2699999809265137
377,1.2699999809265137
378,1.2599999904632568
379,1.2599999904632568
380,1.2400000095367432
381,1.2200000286102295
382,1.1799999475479126
383,1.1200000047683716
384,1.059999942779541
385,0.9900000095367432
386,0.949999988079071
387,0.9300000071525574
388,0.8999999761581421
389,0.8700000047683716
390,0.8299999833106995
391,0.800000011920929
392,0.7599999904632568
393,0.699999988079071
394,0.6399999856948853
395,0.5699999928474426
396,0.5099999904632568
397,0.46000000834465027
398,0.4099999964237213
399,0.3799999952316284
400,0.3400000035762787
401,0.3100000023841858
402,0.28999999165534973
403,0.25
404,0.20000000298023224
405,0.15000000596046448
406,1.4700000286102295
407,1.4500000476837158
408,1.4199999570846558
409,1.3799999952316284
410,1.350000023841858
411,1.309999942779541
412,1.2699999809265137
413,1.2300000190734863
414,1.190000057220459
415,1.1699999570846558
416,1.1699999570846558
417,1.1699999570846558
418,1.159999966621399
419,1.1399999856948853
420,1.100000023841858
421,1.0700000524520874
422,1.0299999713897705
423,0.9900000095367432
424,0.949999988079071
425,0.8999999761581421
426,0.8700000047683716
427,0.8500000238418579
428,0.8600000143051147
429,0.8700000047683716
430,0.8700000047683716
431,0.8700000047683716
432,0.8399999737739563
433,0.8100000023841858
434,0.7699999809265137
435,0.7099999785423279
436,0.6399999856948853
437,0.5699999928474426
438,0.5099999904632568
439,0.46000000834465027
440,0.4099999964237213
441,0.3700000047683716
442,0.3499999940395355
443,0.3400000035762787
444,0.3499999940395355
445,0.36000001430511475
446,0.36000001430511475
447,0.3499999940395355
448,0.33000001311302185
449,0.30000001192092896
450,0.25999999046325684
451,0.20000000298023224
452,0.15000000596046448
453,1.840000033378601
454,1.8300000429153442
455,1.809999942779541
456,1.7799999713897705
457,1.7300000190734863
458,1.6699999570846558
459,1.600000023841858
460,1.5499999523162842
461,1.4800000190734863
462,1.409999966621399
463,1.340000033378601
464,1.2799999713897705
465,1.2100000381469727
466,1.159999966621399
467,1.1200000047683716
468,1.0800000429153442
469,1.0499999523162842
470,1.0399999618530273
471,1.0299999713897705
472,1.0099999904632568
473,0.9599999785423279
474,0.9100000262260437
475,0.8700000047683716
476,0.8399999737739563
477,0.800000011920929
478,0.7799999713897705
479,0.7599999904632568
480,0.7200000286102295
481,0.6600000262260437
482,0.6000000238418579
483,0.5400000214576721
484,0.49000000953674316
485,0.46000000834465027
486,0.4300000071525574
487,0.38999998569488525
488,0.3400000035762787
489,0.28999999165534973
490,0.23000000417232513
491,0.17000000178813934
492,1.5399999618530273
493,1.5499999523162842
494,1.559999942779541
495,1.559999942779541
496,1.5499999523162842
497,1.5199999809265137
498,1.4700000286102295
499,1.4199999570846558
500,1.3799999952316284
501,1.3200000524520874
502,1.309999942779541
503,1.2999999523162842
504,1.2799999713897705
505,1.25
506,1.2100000381469727
507,1.149999976158142
508,1.090000033378601
509,1.0199999809265137
510,0.9599999785423279
511,0.9100000262260437
512,0.8700000047683716
513,0.8199999928474426
514,0.7699999809265137
515,0.7300000190734863
516,0.7099999785423279
517,0.699999988079071
518,0.6899999976158142
519,0.6700000166893005
520,0.6399999856948853
521,0.6000000238418579
522,0.5600000023841858
523,0.5099999904632568
524,0.46000000834465027
525,0.4300000071525574
526,0.38999998569488525
527,0.36000001430511475
528,0.3400000035762787
529,0.33000001311302185
530,0.3100000023841858
531,2.0
532,2.009999990463257
533,2.0199999809265137
534,2.0199999809265137
535,2.009999990463257
536,1.9800000190734863
537,1.9299999475479126
538,1.8899999856948853
539,1.840000033378601
540,1.809999942779541
541,1.7999999523162842
542,1.7799999713897705
543,1.75
544,1.7100000381469727
545,1.6699999570846558
546,1.6299999952316284
547,1.600000023841858
548,1.559999942779541
549,1.5099999904632568
550,1.4500000476837158
551,1.399999976158142
552,1.350000023841858
553,1.309999942779541
554,1.2799999713897705
555,1.2300000190734863
556,1.1699999570846558
557,1.100000023841858
558,1.0399999618530273
559,0.9800000190734863
560,0.9200000166893005
561,0.8500000238418579
562,0.7799999713897705
563,0.7099999785423279
564,0.6399999856948853
565,0.5699999928474426
566,0.49000000953674316
567,0.41999998688697815
568,0.36000001430511475
569,0.2800000011920929
570,0.20999999344348907
571,0.15000000596046448
572,1.5199999809265137
573,1.5099999904632568
574,1.4900000095367432
575,1.440000057220459
576,1.399999976158142
577,1.350000023841858
578,1.309999942779541
579,1.2699999809265137
580,1.2599999904632568
581,1.25
582,1.2300000190734863
583,1.2000000476837158
584,1.1699999570846558
585,1.1299999952316284
586,1.100000023841858
587,1.059999942779541
588,1.0199999809265137
589,0.9900000095367432
590,0.949999988079071
591,0.9200000166893005
592,0.8899999856948853
593,0.8700000047683716
594,0.8700000047683716
595,0.8700000047683716
596,0.8600000143051147
597,0.8399999737739563
598,0.8100000023841858
599,0.7699999809265137
600,0.7200000286102295
601,0.6700000166893005
602,0.6000000238418579
603,0.5199999809265137
604,0.4399999976158142
605,0.3700000047683716
606,0.30000001192092896
607,0.23000000417232513
608,0.18000000715255737
609,1.1299999952316284
610,1.1100000143051147
611,1.0800000429153442
612,1.0499999523162842
613,1.0199999809265137
614,0.9900000095367432
615,0.9599999785423279
616,0.9200000166893005
617,0.8700000047683716
618,0.8299999833106995
619,0.7900000214576721
620,0.75
621,0.7200000286102295
622,0.699999988079071
623,0.6800000071525574
624,0.6600000262260437
625,0.6100000143051147
626,0.5600000023841858
627,0.5099999904632568
628,0.46000000834465027
629,0.4300000071525574
630,0.4099999964237213
631,0.3799999952316284
632,0.3400000035762787
633,0.30000001192092896
634,0.25999999046325684
635,0.23000000417232513
636,0.20000000298023224
637,0.18000000715255737
638,2.359999895095825
639,2.3399999141693115
640,2.319999933242798
641,2.2799999713897705
642,2.2300000190734863
643,2.180000066757202
644,2.140000104904175
645,2.0999999046325684
646,2.0799999237060547
647,2.059999942779541
648,2.059999942779541
649,2.0399999618530273
650,2.0199999809265137
651,1.9900000095367432
652,1.940000057220459
653,1.8799999952316284
654,1.809999942779541
655,1.75
656,1.7000000476837158
657,1.6699999570846558
658,1.6399999856948853
659,1.6200000047683716
660,1.600000023841858
661,1.559999942779541
662,1.5
663,1.4299999475479126
664,1.3600000143051147
665,1.2899999618530273
666,1.2200000286102295
667,1.149999976158142
668,1.0700000524520874
669,1.0
670,0.9200000166893005
671,0.8500000238418579
672,0.7799999713897705
673,0.7099999785423279
674,0.6499999761581421
675,0.5899999737739563
676,0.5299999713897705
677,0.4699999988079071
678,0.4000000059604645
679,0.3400000035762787
680,0.28999999165534973
681,0.25
682,0.23999999463558197
683,0.25
684,0.2800000011920929
685,0.30000001192092896
686,0.3100000023841858
687,0.30000001192092896
688,0.2800000011920929
689,0.25
690,0.20000000298023224
691,0.12999999523162842
692,1.590000033378601
693,1.5800000429153442
694,1.5700000524520874
695,1.5299999713897705
696,1.4800000190734863
697,1.4299999475479126
698,1.3899999856948853
699,1.3799999952316284
700,1.350000023841858
701,1.3200000524520874
702,1.2799999713897705
703,1.2300000190734863
704,1.1799999475479126
705,1.1399999856948853
706,1.090000033378601
707,1.0499999523162842
708,1.0099999904632568
709,0.949999988079071
710,0.8999999761581421
711,0.8500000238418579
712,0.8100000023841858
713,0.7699999809265137
714,0.7400000095367432
715,0.6899999976158142
716,0.6499999761581421
717,0.6100000143051147
718,0.5699999928474426
719,0.550000011920929
720,0.5400000214576721
721,0.5299999713897705
722,0.5
723,0.4699999988079071
724,0.4300000071525574
725,0.4099999964237213
726,0.3799999952316284
727,0.3499999940395355
728,0.33000001311302185
729,0.30000001192092896
730,0.27000001072883606
731,0.23000000417232513
732,0.1899999976158142
733,0.8299999833106995
734,0.8399999737739563
735,0.8399999737739563
736,0.8199999928474426
737,0.7900000214576721
738,0.7400000095367432
739,0.6800000071525574
740,0.6100000143051147
741,0.5400000214576721
742,0.47999998927116394
743,0.4399999976158142
744,0.38999998569488525
745,0.3400000035762787
746,0.2800000011920929
747,0.25
748,0.23000000417232513
749,0.23999999463558197
750,0.25
751,0.25
752,0.25
753,0.23000000417232513
754,0.1899999976158142
755,1.2200000286102295
756,1.2300000190734863
757,1.2300000190734863
758,1.2300000190734863
759,1.2000000476837158
760,1.1699999570846558
761,1.1299999952316284
762,1.100000023841858
763,1.059999942779541
764,1.0199999809265137
765,1.0
766,0.9700000286102295
767,0.9399999976158142
768,0.9100000262260437
769,0.8600000143051147
770,0.7900000214576721
771,0.7099999785423279
772,0.6399999856948853
773,0.5799999833106995
774,0.5400000214576721
775,0.5
776,0.4699999988079071
777,0.46000000834465027
778,0.46000000834465027
779,0.4699999988079071
780,0.47999998927116394
781,0.5
782,0.5199999809265137
783,0.5299999713897705
784,0.5299999713897705
785,0.5099999904632568
786,0.49000000953674316
787,0.4699999988079071
788,0.44999998807907104
789,0.4099999964237213
790,0.3700000047683716
791,0.3400000035762787
792,0.33000001311302185
793,0.3199999928474426
794,0.3100000023841858
795,0.30000001192092896
796,0.30000001192092896
797,0.28999999165534973
798,0.30000001192092896
799,0.3199999928474426
800,0.33000001311302185
801,0.33000001311302185
802,0.9399999976158142
803,0.949999988079071
804,0.9599999785423279
805,0.9700000286102295
806,0.9599999785423279
807,0.9200000166893005
808,0.8799999952316284
809,0.8299999833106995
810,0.7799999713897705
811,0.75
812,0.7300000190734863
813,0.7200000286102295
814,0.699999988079071
815,0.6700000166893005
816,0.6399999856948853
817,0.6100000143051147
818,0.5699999928474426
819,0.5099999904632568
820,0.46000000834465027
821,0.4099999964237213
822,0.3499999940395355
823,0.28999999165534973
824,0.23999999463558197
825,0.18000000715255737
826,0.8100000023841858
827,0.800000011920929
828,0.7900000214576721
829,0.7599999904632568
830,0.7200000286102295
831,0.6700000166893005
832,0.6299999952316284
833,0.5799999833106995
834,0.5199999809265137
835,0.46000000834465027
836,0.4099999964237213
837,0.36000001430511475
838,0.33000001311302185
839,0.3100000023841858
840,0.28999999165534973
841,0.25999999046325684
842,0.2199999988079071
843,0.1599999964237213
844,1.2899999618530273
845,1.309999942779541
846,1.3200000524520874
847,1.3200000524520874
848,1.309999942779541
849,1.2799999713897705
850,1.2400000095367432
851,1.190000057220459
852,1.1399999856948853
853,1.1100000143051147
854,1.100000023841858
855,1.0800000429153442
856,1.0499999523162842
857,1.0199999809265137
858,0.9900000095367432
859,0.949999988079071
